# TOPAS Version: 3.5
# Parameter File: MyNozzle.txt
# Results for scorer DoseAtPhantom
# Scored in component: Phantom
# X in 1 bin  of 20 cm
# Y in 1 bin  of 20 cm
# Z in 400 bins of 0.01 cm
# DoseToMedium ( Gy ) : Sum   
0, 0, 0, 2.244946589735619e-11
0, 0, 1, 0
0, 0, 2, 0
0, 0, 3, 0
0, 0, 4, 0
0, 0, 5, 0
0, 0, 6, 0
0, 0, 7, 5.080728893158692e-11
0, 0, 8, 4.777857970372779e-11
0, 0, 9, 1.483220122243389e-12
0, 0, 10, 0
0, 0, 11, 0
0, 0, 12, 0
0, 0, 13, 2.425749922110865e-12
0, 0, 14, 0
0, 0, 15, 0
0, 0, 16, 0
0, 0, 17, 0
0, 0, 18, 0
0, 0, 19, 0
0, 0, 20, 0
0, 0, 21, 0
0, 0, 22, 0
0, 0, 23, 0
0, 0, 24, 0
0, 0, 25, 0
0, 0, 26, 0
0, 0, 27, 0
0, 0, 28, 0
0, 0, 29, 0
0, 0, 30, 0
0, 0, 31, 0
0, 0, 32, 0
0, 0, 33, 0
0, 0, 34, 0
0, 0, 35, 0
0, 0, 36, 0
0, 0, 37, 6.672509495885687e-14
0, 0, 38, 0
0, 0, 39, 1.18577214019977e-11
0, 0, 40, 0
0, 0, 41, 1.77466650045071e-14
0, 0, 42, 2.355658528484239e-13
0, 0, 43, 9.899904247073765e-13
0, 0, 44, 0
0, 0, 45, 1.067745067709347e-12
0, 0, 46, 4.103644575298611e-14
0, 0, 47, 0
0, 0, 48, 0
0, 0, 49, 0
0, 0, 50, 0
0, 0, 51, 0
0, 0, 52, 5.8580692752989e-17
0, 0, 53, 0
0, 0, 54, 5.659603428270765e-12
0, 0, 55, 2.844420012027005e-12
0, 0, 56, 1.546880679104135e-12
0, 0, 57, 1.878017056103354e-12
0, 0, 58, 1.15245861465052e-10
0, 0, 59, 2.559501222076932e-11
0, 0, 60, 5.336907998865215e-12
0, 0, 61, 1.089513375351903e-11
0, 0, 62, 4.231949859989648e-12
0, 0, 63, 9.326248107122126e-12
0, 0, 64, 4.691569615439262e-12
0, 0, 65, 6.567638360238659e-12
0, 0, 66, 5.452656989118898e-12
0, 0, 67, 2.027080326510999e-12
0, 0, 68, 2.496516448430297e-12
0, 0, 69, 2.052094388513281e-12
0, 0, 70, 1.852060388732313e-12
0, 0, 71, 3.266569957235954e-12
0, 0, 72, 2.636769491984325e-12
0, 0, 73, 3.431643207443824e-12
0, 0, 74, 3.91121076498413e-12
0, 0, 75, 2.068399488144856e-12
0, 0, 76, 2.60021431469637e-12
0, 0, 77, 2.050293962385652e-12
0, 0, 78, 2.107438355769542e-12
0, 0, 79, 1.33723490180343e-12
0, 0, 80, 1.21618980077759e-12
0, 0, 81, 3.881096485858215e-11
0, 0, 82, 2.400894587306635e-12
0, 0, 83, 3.685346298964998e-12
0, 0, 84, 1.978135884261878e-11
0, 0, 85, 3.191825493145672e-12
0, 0, 86, 5.345222528485571e-12
0, 0, 87, 3.402261111729032e-12
0, 0, 88, 4.245726166474117e-12
0, 0, 89, 2.842912103645512e-12
0, 0, 90, 3.145844912691431e-12
0, 0, 91, 2.404794462521065e-12
0, 0, 92, 1.509521240644629e-12
0, 0, 93, 2.2352627561395e-12
0, 0, 94, 2.497927645978004e-12
0, 0, 95, 1.263099108812782e-12
0, 0, 96, 7.382241519471311e-12
0, 0, 97, 4.845021953081563e-12
0, 0, 98, 8.960027858551101e-11
0, 0, 99, 2.151329531185908e-10
0, 0, 100, 2.911160479346364e-10
0, 0, 101, 5.818183712591463e-10
0, 0, 102, 1.051563280896062e-09
0, 0, 103, 1.656654369242005e-09
0, 0, 104, 2.77411116300641e-09
0, 0, 105, 4.665158037653327e-09
0, 0, 106, 6.459738521868985e-09
0, 0, 107, 1.119059067633543e-08
0, 0, 108, 1.557423878750797e-08
0, 0, 109, 2.247774233410382e-08
0, 0, 110, 3.095061273938882e-08
0, 0, 111, 3.870707132591633e-08
0, 0, 112, 4.819106180775634e-08
0, 0, 113, 5.912049516609841e-08
0, 0, 114, 7.178026351084554e-08
0, 0, 115, 8.431759823679386e-08
0, 0, 116, 9.434180725520491e-08
0, 0, 117, 1.021035558324002e-07
0, 0, 118, 1.106700437958352e-07
0, 0, 119, 1.149822850265991e-07
0, 0, 120, 1.172540819993628e-07
0, 0, 121, 1.167212673180984e-07
0, 0, 122, 1.137672569484494e-07
0, 0, 123, 1.105230111875244e-07
0, 0, 124, 1.087439969182924e-07
0, 0, 125, 1.034639609542864e-07
0, 0, 126, 9.965241787313062e-08
0, 0, 127, 9.663809663607026e-08
0, 0, 128, 9.16795244165769e-08
0, 0, 129, 8.873777801454708e-08
0, 0, 130, 8.532866502264369e-08
0, 0, 131, 8.211388546897069e-08
0, 0, 132, 7.948261071533125e-08
0, 0, 133, 7.736789342516204e-08
0, 0, 134, 7.51200843751576e-08
0, 0, 135, 7.329548168399924e-08
0, 0, 136, 7.225252574016849e-08
0, 0, 137, 7.042434901904926e-08
0, 0, 138, 6.872726032725041e-08
0, 0, 139, 6.763699644807275e-08
0, 0, 140, 6.603352176171029e-08
0, 0, 141, 6.435934096771234e-08
0, 0, 142, 6.374230565597827e-08
0, 0, 143, 6.244520278642085e-08
0, 0, 144, 6.188866308320939e-08
0, 0, 145, 6.056959023226227e-08
0, 0, 146, 5.982999340403694e-08
0, 0, 147, 5.885214804379757e-08
0, 0, 148, 5.915551781754402e-08
0, 0, 149, 5.717268791727292e-08
0, 0, 150, 5.720920626117731e-08
0, 0, 151, 5.666681346383484e-08
0, 0, 152, 5.558818472195526e-08
0, 0, 153, 5.456494989175553e-08
0, 0, 154, 5.46345866325737e-08
0, 0, 155, 5.369063416083009e-08
0, 0, 156, 5.283062520788917e-08
0, 0, 157, 5.264323021947348e-08
0, 0, 158, 5.210197429050822e-08
0, 0, 159, 5.151819948423508e-08
0, 0, 160, 5.090200261292921e-08
0, 0, 161, 5.075107978314009e-08
0, 0, 162, 4.967652600385009e-08
0, 0, 163, 4.923731466988102e-08
0, 0, 164, 5.017670190454737e-08
0, 0, 165, 4.853974289176222e-08
0, 0, 166, 4.811686338257459e-08
0, 0, 167, 4.783621676551775e-08
0, 0, 168, 4.738093650757946e-08
0, 0, 169, 4.782762630384241e-08
0, 0, 170, 4.693214705753235e-08
0, 0, 171, 4.595984748334558e-08
0, 0, 172, 4.59268143515601e-08
0, 0, 173, 4.533807995699135e-08
0, 0, 174, 4.490969729431527e-08
0, 0, 175, 4.463058189685398e-08
0, 0, 176, 4.416781607119447e-08
0, 0, 177, 4.384698470971671e-08
0, 0, 178, 4.367182526721081e-08
0, 0, 179, 4.408347820117342e-08
0, 0, 180, 4.29121307377045e-08
0, 0, 181, 4.292158095609011e-08
0, 0, 182, 4.312173729204005e-08
0, 0, 183, 4.196699876501953e-08
0, 0, 184, 4.162914279959296e-08
0, 0, 185, 4.157764976753242e-08
0, 0, 186, 4.125948294131376e-08
0, 0, 187, 4.100438033560749e-08
0, 0, 188, 4.094212968652755e-08
0, 0, 189, 4.106994921926344e-08
0, 0, 190, 4.04884197280353e-08
0, 0, 191, 4.010447440805365e-08
0, 0, 192, 4.016716559362976e-08
0, 0, 193, 4.026120947742129e-08
0, 0, 194, 4.025766031645617e-08
0, 0, 195, 3.957699945544846e-08
0, 0, 196, 3.911468837713983e-08
0, 0, 197, 3.98165376225279e-08
0, 0, 198, 3.89694143621e-08
0, 0, 199, 3.939741333169877e-08
0, 0, 200, 3.883738486365473e-08
0, 0, 201, 3.823811312031467e-08
0, 0, 202, 3.838289330815314e-08
0, 0, 203, 3.807309667536174e-08
0, 0, 204, 3.818935212507313e-08
0, 0, 205, 3.724196773191579e-08
0, 0, 206, 3.69711834480313e-08
0, 0, 207, 3.701805084688203e-08
0, 0, 208, 3.690058747451985e-08
0, 0, 209, 3.684887772692491e-08
0, 0, 210, 3.673355308819737e-08
0, 0, 211, 3.660157688045729e-08
0, 0, 212, 3.66023797937487e-08
0, 0, 213, 3.664214531795551e-08
0, 0, 214, 3.636067447132518e-08
0, 0, 215, 3.567979334206939e-08
0, 0, 216, 3.554677618922142e-08
0, 0, 217, 3.543573612319051e-08
0, 0, 218, 3.537646975360076e-08
0, 0, 219, 3.539419068943062e-08
0, 0, 220, 3.561589778655616e-08
0, 0, 221, 3.468501219572317e-08
0, 0, 222, 3.463528130964733e-08
0, 0, 223, 3.439540208205472e-08
0, 0, 224, 3.427421191304347e-08
0, 0, 225, 3.42182673307434e-08
0, 0, 226, 3.445186891326557e-08
0, 0, 227, 3.425092387487894e-08
0, 0, 228, 3.35994947420204e-08
0, 0, 229, 3.340350573921569e-08
0, 0, 230, 3.356668543119667e-08
0, 0, 231, 3.350733734919231e-08
0, 0, 232, 3.350022481640735e-08
0, 0, 233, 3.357033051543112e-08
0, 0, 234, 3.365718370673676e-08
0, 0, 235, 3.310312024495943e-08
0, 0, 236, 3.295113160106666e-08
0, 0, 237, 3.277229154718952e-08
0, 0, 238, 3.248276669864936e-08
0, 0, 239, 3.262203662757202e-08
0, 0, 240, 3.224746336627504e-08
0, 0, 241, 3.226428901825784e-08
0, 0, 242, 3.201563458787859e-08
0, 0, 243, 3.19320250241617e-08
0, 0, 244, 3.182871211038218e-08
0, 0, 245, 3.187957275940789e-08
0, 0, 246, 3.184638686093422e-08
0, 0, 247, 3.272468873660728e-08
0, 0, 248, 3.176309348873474e-08
0, 0, 249, 3.160326045303918e-08
0, 0, 250, 3.193372322130017e-08
0, 0, 251, 3.269183324050573e-08
0, 0, 252, 3.100293355373651e-08
0, 0, 253, 3.076778298805039e-08
0, 0, 254, 3.095856726531565e-08
0, 0, 255, 3.178741536657981e-08
0, 0, 256, 3.06916803083368e-08
0, 0, 257, 3.067872000883654e-08
0, 0, 258, 3.047273722245336e-08
0, 0, 259, 3.036379681020662e-08
0, 0, 260, 3.045756002961753e-08
0, 0, 261, 3.053584052281622e-08
0, 0, 262, 3.022742944835954e-08
0, 0, 263, 3.042518059714894e-08
0, 0, 264, 3.133769155283517e-08
0, 0, 265, 3.042135787723055e-08
0, 0, 266, 3.006541149375153e-08
0, 0, 267, 3.005128235145094e-08
0, 0, 268, 3.016563354663049e-08
0, 0, 269, 2.976966761991662e-08
0, 0, 270, 2.960649858607667e-08
0, 0, 271, 3.006284288176175e-08
0, 0, 272, 3.044842600274933e-08
0, 0, 273, 3.054183395079235e-08
0, 0, 274, 3.02397715756797e-08
0, 0, 275, 2.945147059563169e-08
0, 0, 276, 2.933509080094154e-08
0, 0, 277, 2.902407203464463e-08
0, 0, 278, 2.893205142129318e-08
0, 0, 279, 2.901341389360823e-08
0, 0, 280, 2.923180097980094e-08
0, 0, 281, 2.874015692100329e-08
0, 0, 282, 2.898386597394165e-08
0, 0, 283, 2.873949611625903e-08
0, 0, 284, 2.88045747254273e-08
0, 0, 285, 2.838784673997452e-08
0, 0, 286, 2.846702074066343e-08
0, 0, 287, 2.856890723990091e-08
0, 0, 288, 2.886252126188538e-08
0, 0, 289, 2.902539897320366e-08
0, 0, 290, 2.857226455432738e-08
0, 0, 291, 2.830169343326361e-08
0, 0, 292, 2.809103882839281e-08
0, 0, 293, 2.791222009079775e-08
0, 0, 294, 2.859370518137894e-08
0, 0, 295, 2.82588761280067e-08
0, 0, 296, 2.801266774099531e-08
0, 0, 297, 2.784770991581809e-08
0, 0, 298, 2.882801197756635e-08
0, 0, 299, 2.790840447630671e-08
0, 0, 300, 2.776711305330082e-08
0, 0, 301, 2.80071308367269e-08
0, 0, 302, 2.764965856272283e-08
0, 0, 303, 2.814228139413899e-08
0, 0, 304, 2.795764331153805e-08
0, 0, 305, 2.789653841261952e-08
0, 0, 306, 2.748613958658552e-08
0, 0, 307, 2.772226359581964e-08
0, 0, 308, 2.75296994090013e-08
0, 0, 309, 2.718659075640062e-08
0, 0, 310, 2.696381606881459e-08
0, 0, 311, 2.726937431418719e-08
0, 0, 312, 2.683137445558259e-08
0, 0, 313, 2.704723911506335e-08
0, 0, 314, 2.705268187241927e-08
0, 0, 315, 2.662839726497168e-08
0, 0, 316, 2.678302202241412e-08
0, 0, 317, 2.698948442514393e-08
0, 0, 318, 2.692027223361038e-08
0, 0, 319, 2.661359843614264e-08
0, 0, 320, 2.675934673845859e-08
0, 0, 321, 2.735478688009607e-08
0, 0, 322, 2.639876583998557e-08
0, 0, 323, 2.64812047845453e-08
0, 0, 324, 2.690352118861483e-08
0, 0, 325, 2.686836175769258e-08
0, 0, 326, 2.639712093355229e-08
0, 0, 327, 2.650797092940138e-08
0, 0, 328, 2.670742382804292e-08
0, 0, 329, 2.604308235731878e-08
0, 0, 330, 2.604983428966534e-08
0, 0, 331, 2.585199609939082e-08
0, 0, 332, 2.61333656936813e-08
0, 0, 333, 2.605016113932379e-08
0, 0, 334, 2.589194636470893e-08
0, 0, 335, 2.642854646239812e-08
0, 0, 336, 2.625742290263133e-08
0, 0, 337, 2.622850558964274e-08
0, 0, 338, 2.61629100606342e-08
0, 0, 339, 2.570765822440535e-08
0, 0, 340, 2.575353086342602e-08
0, 0, 341, 2.627458606241362e-08
0, 0, 342, 2.555502831569356e-08
0, 0, 343, 2.538940435670156e-08
0, 0, 344, 2.552604705385875e-08
0, 0, 345, 2.5258506397563e-08
0, 0, 346, 2.512995500580928e-08
0, 0, 347, 2.548756761200366e-08
0, 0, 348, 2.51640219772753e-08
0, 0, 349, 2.552902245156474e-08
0, 0, 350, 2.581963620684746e-08
0, 0, 351, 2.50015990133079e-08
0, 0, 352, 2.50858942507648e-08
0, 0, 353, 2.511116647951894e-08
0, 0, 354, 2.570676294055829e-08
0, 0, 355, 2.492990169855602e-08
0, 0, 356, 2.479782068576242e-08
0, 0, 357, 2.48617411102714e-08
0, 0, 358, 2.526675046965465e-08
0, 0, 359, 2.464318527017895e-08
0, 0, 360, 2.466662429867483e-08
0, 0, 361, 2.465922399608189e-08
0, 0, 362, 2.43856987935942e-08
0, 0, 363, 2.448179792224892e-08
0, 0, 364, 2.463310444511535e-08
0, 0, 365, 2.451565528360788e-08
0, 0, 366, 2.48078286801956e-08
0, 0, 367, 2.405807286720574e-08
0, 0, 368, 2.399202259084632e-08
0, 0, 369, 2.409901789235391e-08
0, 0, 370, 2.437640844732414e-08
0, 0, 371, 2.443842461730128e-08
0, 0, 372, 2.395276510469557e-08
0, 0, 373, 2.410349075887552e-08
0, 0, 374, 2.445156610519916e-08
0, 0, 375, 2.409371724354514e-08
0, 0, 376, 2.416912181502084e-08
0, 0, 377, 2.435539769862771e-08
0, 0, 378, 2.423652567529189e-08
0, 0, 379, 2.388311592937953e-08
0, 0, 380, 2.408091326344675e-08
0, 0, 381, 2.391157316594672e-08
0, 0, 382, 2.406483545769333e-08
0, 0, 383, 2.392594566913431e-08
0, 0, 384, 2.381796448958085e-08
0, 0, 385, 2.394518361370501e-08
0, 0, 386, 2.400774512523185e-08
0, 0, 387, 2.436164869834556e-08
0, 0, 388, 2.418222244671142e-08
0, 0, 389, 2.376319052643794e-08
0, 0, 390, 2.343270999460856e-08
0, 0, 391, 2.392843079235263e-08
0, 0, 392, 2.352589234533298e-08
0, 0, 393, 2.342236093966221e-08
0, 0, 394, 2.345362837274934e-08
0, 0, 395, 2.326501480354182e-08
0, 0, 396, 2.347561789406427e-08
0, 0, 397, 2.354599892839815e-08
0, 0, 398, 2.328352799452205e-08
0, 0, 399, 2.307038826643293e-08
